ENVI ASCII Plot File [Mon Mar 29 22:50:32 2021]
Column 1: Wavelength
Column 2: AVHRR7 Band 1~~1
Column 3: AVHRR7 Band 2~~2
   0.430000  0.000000  0.000000
   0.435000  0.000000  0.000000
   0.440000  0.000000  0.000000
   0.445000  0.000000  0.000000
   0.450000  0.000000  0.000000
   0.455000  0.000000  0.000000
   0.460000  0.000000  0.000000
   0.465000  0.000000  0.000000
   0.470000  0.000000  0.000000
   0.475000  0.000000  0.000000
   0.480000  0.000000  0.000000
   0.485000  0.000000  0.000000
   0.490000  0.000000  0.000000
   0.495000  0.000000  0.000000
   0.500000  0.000000  0.000000
   0.505000  0.002500  0.000000
   0.510000  0.005000  0.000000
   0.515000  0.005000  0.000000
   0.520000  0.005000  0.000000
   0.525000  0.005000  0.000000
   0.530000  0.005000  0.000000
   0.535000  0.005000  0.000000
   0.540000  0.005000  0.000000
   0.545000  0.005000  0.000000
   0.550000  0.005000  0.000000
   0.555000  0.066000  0.000000
   0.560000  0.127000  0.000000
   0.565000  0.277000  0.000000
   0.570000  0.427000  0.000000
   0.575000  0.557000  0.000000
   0.580000  0.687000  0.000000
   0.585000  0.734501  0.000000
   0.590000  0.782000  0.000000
   0.595000  0.781000  0.000000
   0.600000  0.780000  0.000000
   0.605000  0.796000  0.000000
   0.610000  0.812000  0.000000
   0.615000  0.833500  0.000000
   0.620000  0.855000  0.000000
   0.625000  0.927500  0.000000
   0.630000  1.000000  0.000000
   0.635000  0.975000  0.000000
   0.640000  0.950000  0.000000
   0.645000  0.952500  0.002500
   0.650000  0.955000  0.005000
   0.655000  0.957500  0.005000
   0.660000  0.960000  0.005000
   0.665000  0.967500  0.005000
   0.670000  0.975000  0.005000
   0.675000  0.882500  0.005000
   0.680000  0.790000  0.005000
   0.685000  0.570000  0.007500
   0.690000  0.350000  0.010000
   0.695000  0.240000  0.040000
   0.700000  0.130000  0.070000
   0.705000  0.100000  0.205002
   0.710000  0.070000  0.340001
   0.715000  0.055000  0.460001
   0.720000  0.040000  0.580000
   0.725000  0.030000  0.705000
   0.730000  0.020000  0.830000
   0.735000  0.017500  0.897500
   0.740000  0.015000  0.965000
   0.745000  0.012500  0.980000
   0.750000  0.010000  0.995000
   0.755000  0.010000  0.997500
   0.760000  0.010000  1.000000
   0.765000  0.010000  0.995000
   0.770000  0.010000  0.990000
   0.775000  0.010000  0.990000
   0.780000  0.010000  0.990000
   0.785000  0.010000  0.962500
   0.790000  0.010000  0.935000
   0.795000  0.005000  0.937500
   0.800000  0.000000  0.940000
   0.805000  0.000000  0.925000
   0.810000  0.000000  0.910000
   0.815000  0.000000  0.890000
   0.820000  0.000000  0.870000
   0.825000  0.000000  0.870000
   0.830000  0.000000  0.870000
   0.835000  0.000000  0.870000
   0.840000  0.000000  0.870000
   0.845000  0.000000  0.870000
   0.850000  0.000000  0.870000
   0.855000  0.000000  0.870000
   0.860000  0.000000  0.870000
   0.865000  0.000000  0.870000
   0.870000  0.000000  0.870000
   0.875000  0.000000  0.870000
   0.880000  0.000000  0.870000
   0.885000  0.000000  0.865000
   0.890000  0.000000  0.860000
   0.895000  0.000000  0.852500
   0.900000  0.000000  0.845000
   0.905000  0.000000  0.840000
   0.910000  0.000000  0.835000
   0.915000  0.000000  0.827500
   0.920000  0.000000  0.820000
   0.925000  0.000000  0.805000
   0.930000  0.000000  0.790000
   0.935000  0.000000  0.785000
   0.940000  0.000000  0.780000
   0.945000  0.000000  0.775000
   0.950000  0.000000  0.770000
   0.955000  0.000000  0.765000
   0.960000  0.000000  0.760000
   0.965000  0.000000  0.750000
   0.970000  0.000000  0.740000
   0.975000  0.000000  0.690000
   0.980000  0.000000  0.640000
   0.985000  0.000000  0.545000
   0.990000  0.000000  0.450000
   0.995000  0.000000  0.355000
   1.000000  0.000000  0.260000
   1.005000  0.000000  0.242000
   1.010000  0.000000  0.224000
   1.015000  0.000000  0.206000
   1.020000  0.000000  0.188000
   1.025000  0.000000  0.170000
   1.030000  0.000000  0.152000
   1.035000  0.000000  0.134000
   1.040000  0.000000  0.116000
   1.045000  0.000000  0.098000
   1.050000  0.000000  0.080000
   1.055000  0.000000  0.072500
   1.060000  0.000000  0.065000
   1.065000  0.000000  0.057500
   1.070000  0.000000  0.050000
   1.075000  0.000000  0.042500
   1.080000  0.000000  0.035000
   1.085000  0.000000  0.027500
   1.090000  0.000000  0.020000
   1.095000  0.000000  0.012500
   1.100000  0.000000  0.005000
   1.105000  0.000000  0.005000
   1.110000  0.000000  0.005000
   1.115000  0.000000  0.005000
   1.120000  0.000000  0.005000
   1.125000  0.000000  0.005000
   1.130000  0.000000  0.005000
   1.135000  0.000000  0.005000
   1.140000  0.000000  0.005000
   1.145000  0.000000  0.005000
   1.150000  0.000000  0.005000
   1.155000  0.000000  0.005000
   1.160000  0.000000  0.005000
   1.165000  0.000000  0.005000
   1.170000  0.000000  0.005000
   1.175000  0.000000  0.005000
   1.180000  0.000000  0.005000
   1.185000  0.000000  0.005000
   1.190000  0.000000  0.005000
   1.195000  0.000000  0.005000
   1.200000  0.000000  0.005000
   1.205000  0.000000  0.004500
   1.210000  0.000000  0.004000
   1.215000  0.000000  0.003500
   1.220000  0.000000  0.003000
   1.225000  0.000000  0.002500
   1.230000  0.000000  0.002000
   1.235000  0.000000  0.001500
   1.240000  0.000000  0.001000
   1.245000  0.000000  0.000500
   1.250000  0.000000  0.000000
   1.255000  0.000000  0.000000
   1.260000  0.000000  0.000000
   1.265000  0.000000  0.000000
   1.270000  0.000000  0.000000
   1.275000  0.000000  0.000000
   1.280000  0.000000  0.000000
   1.285000  0.000000  0.000000
   1.290000  0.000000  0.000000
   1.295000  0.000000  0.000000
   1.300000  0.000000  0.000000
   1.305000  0.000000  0.000000
   1.310000  0.000000  0.000000
   1.315000  0.000000  0.000000
   1.320000  0.000000  0.000000
   1.325000  0.000000  0.000000
   1.330000  0.000000  0.000000
   1.335000  0.000000  0.000000
   1.340000  0.000000  0.000000
   1.345000  0.000000  0.000000
   1.350000  0.000000  0.000000
   1.355000  0.000000  0.000000
   1.360000  0.000000  0.000000
   1.365000  0.000000  0.000000
   1.370000  0.000000  0.000000
   1.375000  0.000000  0.000000
   1.380000  0.000000  0.000000
   1.385000  0.000000  0.000000
   1.390000  0.000000  0.000000
   1.395000  0.000000  0.000000
   1.400000  0.000000  0.000000
   1.405000  0.000000  0.000000
   1.410000  0.000000  0.000000
   1.415000  0.000000  0.000000
   1.420000  0.000000  0.000000
   1.425000  0.000000  0.000000
   1.430000  0.000000  0.000000
   1.435000  0.000000  0.000000
   1.440000  0.000000  0.000000
   1.445000  0.000000  0.000000
   1.450000  0.000000  0.000000
   1.455000  0.000000  0.000000
   1.460000  0.000000  0.000000
   1.465000  0.000000  0.000000
   1.470000  0.000000  0.000000
   1.475000  0.000000  0.000000
   1.480000  0.000000  0.000000
   1.485000  0.000000  0.000000
   1.490000  0.000000  0.000000
   1.495000  0.000000  0.000000
   1.500000  0.000000  0.000000
   1.505000  0.000000  0.000000
   1.510000  0.000000  0.000000
   1.515000  0.000000  0.000000
   1.520000  0.000000  0.000000
   1.525000  0.000000  0.000000
   1.530000  0.000000  0.000000
   1.535000  0.000000  0.000000
   1.540000  0.000000  0.000000
   1.545000  0.000000  0.000000
   1.550000  0.000000  0.000000
   1.555000  0.000000  0.000000
   1.560000  0.000000  0.000000
   1.565000  0.000000  0.000000
   1.570000  0.000000  0.000000
   1.575000  0.000000  0.000000
   1.580000  0.000000  0.000000
   1.585000  0.000000  0.000000
   1.590000  0.000000  0.000000
   1.595000  0.000000  0.000000
   1.600000  0.000000  0.000000
   1.605000  0.000000  0.000000
   1.610000  0.000000  0.000000
   1.615000  0.000000  0.000000
   1.620000  0.000000  0.000000
   1.625000  0.000000  0.000000
   1.630000  0.000000  0.000000
   1.635000  0.000000  0.000000
   1.640000  0.000000  0.000000
   1.645000  0.000000  0.000000
   1.650000  0.000000  0.000000
   1.655000  0.000000  0.000000
   1.660000  0.000000  0.000000
   1.665000  0.000000  0.000000
   1.670000  0.000000  0.000000
   1.675000  0.000000  0.000000
   1.680000  0.000000  0.000000
   1.685000  0.000000  0.000000
   1.690000  0.000000  0.000000
   1.695000  0.000000  0.000000
   1.700000  0.000000  0.000000
   1.705000  0.000000  0.000000
   1.710000  0.000000  0.000000
   1.715000  0.000000  0.000000
   1.720000  0.000000  0.000000
   1.725000  0.000000  0.000000
   1.730000  0.000000  0.000000
   1.735000  0.000000  0.000000
   1.740000  0.000000  0.000000
   1.745000  0.000000  0.000000
   1.750000  0.000000  0.000000
   1.755000  0.000000  0.000000
   1.760000  0.000000  0.000000
   1.765000  0.000000  0.000000
   1.770000  0.000000  0.000000
   1.775000  0.000000  0.000000
   1.780000  0.000000  0.000000
   1.785000  0.000000  0.000000
   1.790000  0.000000  0.000000
   1.795000  0.000000  0.000000
   1.800000  0.000000  0.000000
   1.805000  0.000000  0.000000
   1.810000  0.000000  0.000000
   1.815000  0.000000  0.000000
   1.820000  0.000000  0.000000
   1.825000  0.000000  0.000000
   1.830000  0.000000  0.000000
   1.835000  0.000000  0.000000
   1.840000  0.000000  0.000000
   1.845000  0.000000  0.000000
   1.850000  0.000000  0.000000
   1.855000  0.000000  0.000000
   1.860000  0.000000  0.000000
   1.865000  0.000000  0.000000
   1.870000  0.000000  0.000000
   1.875000  0.000000  0.000000
   1.880000  0.000000  0.000000
   1.885000  0.000000  0.000000
   1.890000  0.000000  0.000000
   1.895000  0.000000  0.000000
   1.900000  0.000000  0.000000
   1.905000  0.000000  0.000000
   1.910000  0.000000  0.000000
   1.915000  0.000000  0.000000
   1.920000  0.000000  0.000000
   1.925000  0.000000  0.000000
   1.930000  0.000000  0.000000
   1.935000  0.000000  0.000000
   1.940000  0.000000  0.000000
   1.945000  0.000000  0.000000
   1.950000  0.000000  0.000000
   1.955000  0.000000  0.000000
   1.960000  0.000000  0.000000
   1.965000  0.000000  0.000000
   1.970000  0.000000  0.000000
   1.975000  0.000000  0.000000
   1.980000  0.000000  0.000000
   1.985000  0.000000  0.000000
   1.990000  0.000000  0.000000
   1.995000  0.000000  0.000000
   2.000000  0.000000  0.000000
   2.005000  0.000000  0.000000
   2.010000  0.000000  0.000000
   2.015000  0.000000  0.000000
   2.020000  0.000000  0.000000
   2.025000  0.000000  0.000000
   2.030000  0.000000  0.000000
   2.035000  0.000000  0.000000
   2.040000  0.000000  0.000000
   2.045000  0.000000  0.000000
   2.050000  0.000000  0.000000
   2.055000  0.000000  0.000000
   2.060000  0.000000  0.000000
   2.065000  0.000000  0.000000
   2.070000  0.000000  0.000000
   2.075000  0.000000  0.000000
   2.080000  0.000000  0.000000
   2.085000  0.000000  0.000000
   2.090000  0.000000  0.000000
   2.095000  0.000000  0.000000
   2.100000  0.000000  0.000000
   2.105000  0.000000  0.000000
   2.110000  0.000000  0.000000
   2.115000  0.000000  0.000000
   2.120000  0.000000  0.000000
   2.125000  0.000000  0.000000
   2.130000  0.000000  0.000000
   2.135000  0.000000  0.000000
   2.140000  0.000000  0.000000
   2.145000  0.000000  0.000000
   2.150000  0.000000  0.000000
   2.155000  0.000000  0.000000
   2.160000  0.000000  0.000000
   2.165000  0.000000  0.000000
   2.170000  0.000000  0.000000
   2.175000  0.000000  0.000000
   2.180000  0.000000  0.000000
   2.185000  0.000000  0.000000
   2.190000  0.000000  0.000000
   2.195000  0.000000  0.000000
   2.200000  0.000000  0.000000
   2.205000  0.000000  0.000000
   2.210000  0.000000  0.000000
   2.215000  0.000000  0.000000
   2.220000  0.000000  0.000000
   2.225000  0.000000  0.000000
   2.230000  0.000000  0.000000
   2.235000  0.000000  0.000000
   2.240000  0.000000  0.000000
   2.245000  0.000000  0.000000
   2.250000  0.000000  0.000000
   2.255000  0.000000  0.000000
   2.260000  0.000000  0.000000
   2.265000  0.000000  0.000000
   2.270000  0.000000  0.000000
   2.275000  0.000000  0.000000
   2.280000  0.000000  0.000000
   2.285000  0.000000  0.000000
   2.290000  0.000000  0.000000
   2.295000  0.000000  0.000000
   2.300000  0.000000  0.000000
   2.305000  0.000000  0.000000
   2.310000  0.000000  0.000000
   2.315000  0.000000  0.000000
   2.320000  0.000000  0.000000
   2.325000  0.000000  0.000000
   2.330000  0.000000  0.000000
   2.335000  0.000000  0.000000
   2.340000  0.000000  0.000000
   2.345000  0.000000  0.000000
   2.350000  0.000000  0.000000
   2.355000  0.000000  0.000000
   2.360000  0.000000  0.000000
   2.365000  0.000000  0.000000
   2.370000  0.000000  0.000000
   2.375000  0.000000  0.000000
   2.380000  0.000000  0.000000
   2.385000  0.000000  0.000000
   2.390000  0.000000  0.000000
   2.395000  0.000000  0.000000
   2.400000  0.000000  0.000000
   2.405000  0.000000  0.000000
   2.410000  0.000000  0.000000
   2.415000  0.000000  0.000000
   2.420000  0.000000  0.000000
   2.425000  0.000000  0.000000
   2.430000  0.000000  0.000000
   2.435000  0.000000  0.000000
   2.440000  0.000000  0.000000
   2.445000  0.000000  0.000000
   2.450000  0.000000  0.000000
   2.455000  0.000000  0.000000
   2.460000  0.000000  0.000000
   2.465000  0.000000  0.000000
   2.470000  0.000000  0.000000
   2.475000  0.000000  0.000000
   2.480000  0.000000  0.000000
   2.485000  0.000000  0.000000
   2.490000  0.000000  0.000000
   2.495000  0.000000  0.000000
   2.500000  0.000000  0.000000
   2.505000  0.000000  0.000000
   2.510000  0.000000  0.000000
   2.515000  0.000000  0.000000
   2.520000  0.000000  0.000000
   2.525000  0.000000  0.000000
   2.530000  0.000000  0.000000
   2.535000  0.000000  0.000000
   2.540000  0.000000  0.000000
   2.545000  0.000000  0.000000
   2.550000  0.000000  0.000000
   2.555000  0.000000  0.000000
   2.560000  0.000000  0.000000
   2.565000  0.000000  0.000000
   2.570000  0.000000  0.000000
   2.575000  0.000000  0.000000
   2.580000  0.000000  0.000000
   2.585000  0.000000  0.000000
   2.590000  0.000000  0.000000
   2.595000  0.000000  0.000000
   2.600000  0.000000  0.000000
   2.605000  0.000000  0.000000
   2.610000  0.000000  0.000000
   2.615000  0.000000  0.000000
   2.620000  0.000000  0.000000
   2.625000  0.000000  0.000000
   2.630000  0.000000  0.000000
   2.635000  0.000000  0.000000
   2.640000  0.000000  0.000000
   2.645000  0.000000  0.000000
   2.650000  0.000000  0.000000
   2.655000  0.000000  0.000000
   2.660000  0.000000  0.000000
   2.665000  0.000000  0.000000
   2.670000  0.000000  0.000000
   2.675000  0.000000  0.000000
   2.680000  0.000000  0.000000
   2.685000  0.000000  0.000000
   2.690000  0.000000  0.000000
   2.695000  0.000000  0.000000
   2.700000  0.000000  0.000000
   2.705000  0.000000  0.000000
   2.710000  0.000000  0.000000
   2.715000  0.000000  0.000000
   2.720000  0.000000  0.000000
   2.725000  0.000000  0.000000
   2.730000  0.000000  0.000000
   2.735000  0.000000  0.000000
   2.740000  0.000000  0.000000
   2.745000  0.000000  0.000000
   2.750000  0.000000  0.000000
   2.755000  0.000000  0.000000
   2.760000  0.000000  0.000000
   2.765000  0.000000  0.000000
   2.770000  0.000000  0.000000
   2.775000  0.000000  0.000000
   2.780000  0.000000  0.000000
   2.785000  0.000000  0.000000
   2.790000  0.000000  0.000000
   2.795000  0.000000  0.000000
   2.800000  0.000000  0.000000
   2.805000  0.000000  0.000000
   2.810000  0.000000  0.000000
   2.815000  0.000000  0.000000
   2.820000  0.000000  0.000000
   2.825000  0.000000  0.000000
   2.830000  0.000000  0.000000
   2.835000  0.000000  0.000000
   2.840000  0.000000  0.000000
   2.845000  0.000000  0.000000
   2.850000  0.000000  0.000000
   2.855000  0.000000  0.000000
   2.860000  0.000000  0.000000
   2.865000  0.000000  0.000000
   2.870000  0.000000  0.000000
   2.875000  0.000000  0.000000
   2.880000  0.000000  0.000000
   2.885000  0.000000  0.000000
   2.890000  0.000000  0.000000
   2.895000  0.000000  0.000000
   2.900000  0.000000  0.000000
   2.905000  0.000000  0.000000
   2.910000  0.000000  0.000000
   2.915000  0.000000  0.000000
   2.920000  0.000000  0.000000
   2.925000  0.000000  0.000000
   2.930000  0.000000  0.000000
   2.935000  0.000000  0.000000
   2.940000  0.000000  0.000000
   2.945000  0.000000  0.000000
   2.950000  0.000000  0.000000
   2.955000  0.000000  0.000000
   2.960000  0.000000  0.000000
   2.965000  0.000000  0.000000
   2.970000  0.000000  0.000000
   2.975000  0.000000  0.000000
   2.980000  0.000000  0.000000
   2.985000  0.000000  0.000000
   2.990000  0.000000  0.000000
   2.995000  0.000000  0.000000
   3.000000  0.000000  0.000000
   3.005000  0.000000  0.000000
   3.010000  0.000000  0.000000
   3.015000  0.000000  0.000000
   3.020000  0.000000  0.000000
   3.025000  0.000000  0.000000
   3.030000  0.000000  0.000000
   3.035000  0.000000  0.000000
   3.040000  0.000000  0.000000
   3.045000  0.000000  0.000000
   3.050000  0.000000  0.000000
   3.055000  0.000000  0.000000
   3.060000  0.000000  0.000000
   3.065000  0.000000  0.000000
   3.070000  0.000000  0.000000
   3.075000  0.000000  0.000000
   3.080000  0.000000  0.000000
   3.085000  0.000000  0.000000
   3.090000  0.000000  0.000000
   3.095000  0.000000  0.000000
   3.100000  0.000000  0.000000
   3.105000  0.000000  0.000000
   3.110000  0.000000  0.000000
   3.115000  0.000000  0.000000
   3.120000  0.000000  0.000000
   3.125000  0.000000  0.000000
   3.130000  0.000000  0.000000
   3.135000  0.000000  0.000000
   3.140000  0.000000  0.000000
   3.145000  0.000000  0.000000
   3.150000  0.000000  0.000000
   3.155000  0.000000  0.000000
   3.160000  0.000000  0.000000
   3.165000  0.000000  0.000000
   3.170000  0.000000  0.000000
   3.175000  0.000000  0.000000
   3.180000  0.000000  0.000000
   3.185000  0.000000  0.000000
   3.190000  0.000000  0.000000
   3.195000  0.000000  0.000000
   3.200000  0.000000  0.000000
   3.205000  0.000000  0.000000
   3.210000  0.000000  0.000000
   3.215000  0.000000  0.000000
   3.220000  0.000000  0.000000
   3.225000  0.000000  0.000000
   3.230000  0.000000  0.000000
   3.235000  0.000000  0.000000
   3.240000  0.000000  0.000000
   3.245000  0.000000  0.000000
   3.250000  0.000000  0.000000
   3.255000  0.000000  0.000000
   3.260000  0.000000  0.000000
   3.265000  0.000000  0.000000
   3.270000  0.000000  0.000000
   3.275000  0.000000  0.000000
   3.280000  0.000000  0.000000
   3.285000  0.000000  0.000000
   3.290000  0.000000  0.000000
   3.295000  0.000000  0.000000
   3.300000  0.000000  0.000000
   3.305000  0.000000  0.000000
   3.310000  0.000000  0.000000
   3.315000  0.000000  0.000000
   3.320000  0.000000  0.000000
   3.325000  0.000000  0.000000
   3.330000  0.000000  0.000000
   3.335000  0.000000  0.000000
   3.340000  0.000000  0.000000
   3.345000  0.000000  0.000000
   3.350000  0.000000  0.000000
   3.355000  0.000000  0.000000
   3.360000  0.000000  0.000000
   3.365000  0.000000  0.000000
   3.370000  0.000000  0.000000
   3.375000  0.000000  0.000000
   3.380000  0.000000  0.000000
   3.385000  0.000000  0.000000
   3.390000  0.000000  0.000000
   3.395000  0.000000  0.000000
   3.400000  0.000000  0.000000
   3.405000  0.000000  0.000000
   3.410000  0.000000  0.000000
   3.415000  0.000000  0.000000
   3.420000  0.000000  0.000000
   3.425000  0.000000  0.000000
   3.430000  0.000000  0.000000
   3.435000  0.000000  0.000000
   3.440000  0.000000  0.000000
   3.445000  0.000000  0.000000
   3.450000  0.000000  0.000000
   3.455000  0.000000  0.000000
   3.460000  0.000000  0.000000
   3.465000  0.000000  0.000000
   3.470000  0.000000  0.000000
   3.475000  0.000000  0.000000
   3.480000  0.000000  0.000000
   3.485000  0.000000  0.000000
   3.490000  0.000000  0.000000
   3.495000  0.000000  0.000000
   3.500000  0.000000  0.000000
   3.505000  0.000000  0.000000
   3.510000  0.000000  0.000000
   3.515000  0.000000  0.000000
   3.520000  0.000000  0.000000
   3.525000  0.000000  0.000000
   3.530000  0.000000  0.000000
